,velocity,vel_ori,density,den_ori,eta
0,0.0,0.0,2.1460228801897285,-1.0,0.0
1,0.08163385387943842,-1.0,2.145522916901963,-1.0,0.002004008016032064
2,0.16184022708802337,-1.0,2.145022953614197,-1.0,0.004008016032064128
3,0.24048273548075055,-1.0,2.1445229903264234,-1.0,0.0060120240480961915
4,0.3174249949126157,-1.0,2.1440230270386578,-1.0,0.008016032064128256
5,0.39253062123861465,-1.0,2.143523063750892,-1.0,0.01002004008016032
6,0.4656632303137429,-1.0,2.1430231004631186,-1.0,0.012024048096192383
7,0.5366864379929964,-1.0,2.142523137175345,-1.0,0.014028056112224447
8,0.6054638601313707,-1.0,2.1420231738875875,-1.0,0.01603206412825651
9,0.6718591125838616,-1.0,2.141523210599814,-1.0,0.018036072144288574
10,0.7357358112054646,-1.0,2.1410232473120403,-1.0,0.02004008016032064
11,0.7969575718511758,-1.0,2.1405232840242823,-1.0,0.022044088176352703
12,0.8553880103759908,-1.0,2.140023320736509,-1.0,0.024048096192384766
13,0.9108907426349053,-1.0,2.1395233574487356,-1.0,0.026052104208416832
14,0.9633293844829148,-1.0,2.1390233941609695,-1.0,0.028056112224448895
15,1.0125675517750152,-1.0,2.1385234308731964,-1.0,0.03006012024048096
16,1.0584688603662025,-1.0,2.1380234675854304,-1.0,0.03206412825651302
17,1.1008969261114716,-1.0,2.137523504297665,-1.0,0.03406813627254509
18,1.1412015167957605,-1.0,2.137023541009899,-1.0,0.03607214428857715
19,1.1811765213698109,-1.0,2.1365235777221256,-1.0,0.038076152304609215
20,1.220627763173763,-1.0,2.136023614434352,-1.0,0.04008016032064128
21,1.2593514654820879,-1.0,2.1355236511465865,-1.0,0.04208416833667334
22,1.2971438515692553,-1.0,2.135023687858821,-1.0,0.044088176352705406
23,1.3338011447097358,-1.0,2.1345237245710473,-1.0,0.04609218436873747
24,1.3691195681779995,-1.0,2.1340237612832818,-1.0,0.04809619238476953
25,1.402895345248517,-1.0,2.1335237979955157,-1.0,0.0501002004008016
26,1.4349246991957583,-1.0,2.1330238330948186,-1.0,0.052104208416833664
27,1.4650038532941934,-1.0,2.1325238685803325,-1.0,0.05410821643286573
28,1.4929290308182934,-1.0,2.1320228593134,-1.0,0.05611222444889779
29,1.5184964550425282,-1.0,2.131523464653414,2.1315214989027367,0.058116232464929855
30,1.541502349241368,-1.0,2.131031285293839,-1.0,0.06012024048096192
31,1.5617429366892828,-1.0,2.130548243163929,-1.0,0.06212424849699398
32,1.5790144406607438,-1.0,2.130077790218937,-1.0,0.06412825651302605
33,1.5931130844302201,1.5976264970288512,2.1296180561296865,-1.0,0.06613226452905811
34,1.603835091272183,-1.0,2.129168594336342,-1.0,0.06813627254509018
35,1.6120691920067114,-1.0,2.1287286126798426,-1.0,0.07014028056112225
36,1.6196407691996553,-1.0,2.1282977372308256,-1.0,0.0721442885771543
37,1.6266273569557463,-1.0,2.1278751305307373,-1.0,0.07414829659318636
38,1.6330742575789434,-1.0,2.1274604252041054,-1.0,0.07615230460921843
39,1.6390267733732042,-1.0,2.127052824243862,-1.0,0.0781563126252505
40,1.6445302066424876,-1.0,2.126651862625765,-1.0,0.08016032064128256
41,1.6496298596907515,-1.0,2.126256905375394,-1.0,0.08216432865731463
42,1.6543710348219545,-1.0,2.125867280761345,-1.0,0.08416833667334668
43,1.6587990343400547,-1.0,2.1254825828862174,-1.0,0.08617234468937875
44,1.6629591605490108,-1.0,2.1251019232667296,-1.0,0.08817635270541081
45,1.6668967157527808,-1.0,2.124725063828607,-1.0,0.09018036072144288
46,1.6706570022553227,-1.0,2.1243510036574356,-1.0,0.09218436873747494
47,1.6742853223605956,-1.0,2.123979554289474,-1.0,0.09418837675350701
48,1.677826978372557,-1.0,2.1236097324079344,-1.0,0.09619238476953906
49,1.6813272725951658,1.6839934686034124,2.123241260527967,-1.0,0.09819639278557113
50,1.68483150733238,-1.0,2.1228733177871204,-1.0,0.1002004008016032
51,1.6883849848881578,-1.0,2.1225053975573234,-1.0,0.10220440881763526
52,1.6919865274302457,-1.0,2.12213696688053,-1.0,0.10420841683366733
53,1.695549095805719,-1.0,2.121767227884651,-1.0,0.1062124248496994
54,1.6990598594998683,-1.0,2.121395886737367,-1.0,0.10821643286573146
55,1.7025093430494886,-1.0,2.1210219699112116,-1.0,0.11022044088176351
56,1.7058880709913757,-1.0,2.120645285520725,-1.0,0.11222444889779558
57,1.7091865678623264,-1.0,2.120264829921585,-1.0,0.11422845691382764
58,1.7123953581991356,-1.0,2.1198803735387988,-1.0,0.11623246492985971
59,1.7155049665385993,-1.0,2.1194910139550323,-1.0,0.11823647294589178
60,1.7185059174175137,-1.0,2.1190963640562175,-1.0,0.12024048096192384
61,1.7213887353726738,-1.0,2.1186957289521287,-1.0,0.1222444889779559
62,1.7241439449408762,-1.0,2.118288496094635,-1.0,0.12424849699398796
63,1.7267620706589166,-1.0,2.1178741837109385,-1.0,0.12625250501002003
64,1.7292336370635906,-1.0,2.117452006235901,-1.0,0.1282565130260521
65,1.7315491686916942,-1.0,2.1170215895888376,-1.0,0.13026052104208416
66,1.7336991900800225,-1.0,2.116582098800567,-1.0,0.13226452905811623
67,1.7356742257653723,-1.0,2.116133160927667,-1.0,0.1342685370741483
68,1.7374648002845385,-1.0,2.115673979914924,-1.0,0.13627254509018036
69,1.7391018119207413,-1.0,2.1152041152172023,-1.0,0.13827655310621242
70,1.7406941317974527,-1.0,2.1147228582102016,-1.0,0.1402805611222445
71,1.7422448974988873,-1.0,2.114229674506335,-1.0,0.14228456913827653
72,1.7437501431075517,-1.0,2.113723945165718,-1.0,0.1442885771543086
73,1.7452059027059534,-1.0,2.113205066626871,-1.0,0.14629258517034066
74,1.7466082103765992,1.7478324434090053,2.1126724552201437,-1.0,0.14829659318637273
75,1.7479531002019961,-1.0,2.1121255005363015,-1.0,0.1503006012024048
76,1.749236606264651,-1.0,2.111563605701558,-1.0,0.15230460921843686
77,1.7504547626470712,-1.0,2.110986184611231,-1.0,0.15430861723446893
78,1.7516036034317637,-1.0,2.1103926166296056,-1.0,0.156312625250501
79,1.7526791627012355,-1.0,2.109782330254291,-1.0,0.15831663326653306
80,1.7536774745379935,-1.0,2.1091547104381396,-1.0,0.16032064128256512
81,1.7545945730245445,-1.0,2.108509151777405,-1.0,0.1623246492985972
82,1.7554264922433962,-1.0,2.1078451008972627,-1.0,0.16432865731462926
83,1.7561692662770552,-1.0,2.1071618661895295,-1.0,0.16633266533066132
84,1.7568189292080287,-1.0,2.106458989366491,-1.0,0.16833667334669336
85,1.7573715151188234,-1.0,2.1057356929293967,-1.0,0.17034068136272543
86,1.757842129267894,-1.0,2.104991587412282,-1.0,0.1723446893787575
87,1.758298148755886,-1.0,2.104225853573984,-1.0,0.17434869739478956
88,1.7587437332252038,-1.0,2.1034381094379406,-1.0,0.17635270541082163
89,1.7591764509881287,-1.0,2.1026275715451135,-1.0,0.1783567134268537
90,1.7595938703569414,-1.0,2.101795722402865,-1.0,0.18036072144288576
91,1.7599935596439231,-1.0,2.100935621659838,-1.0,0.18236472945891782
92,1.7603730871613543,-1.0,2.1000593066096154,2.099991423887981,0.1843687374749499
93,1.760730021221516,-1.0,2.099079673737827,-1.0,0.18637274549098196
94,1.7610619301366892,-1.0,2.0979318593312057,-1.0,0.18837675350701402
95,1.7613663822191543,-1.0,2.0966279462779336,-1.0,0.1903807615230461
96,1.7616409457811928,-1.0,2.095140847028577,-1.0,0.19238476953907813
97,1.7618831891350852,-1.0,2.0934998702699077,-1.0,0.1943887775551102
98,1.7620906805931122,1.7630251248969782,2.0916882075329837,-1.0,0.19639278557114226
99,1.762260988467555,-1.0,2.089723898666087,-1.0,0.19839679358717432
100,1.7623916810706945,-1.0,2.0875989999860085,-1.0,0.2004008016032064
101,1.7624803267148115,-1.0,2.085321414629926,-1.0,0.20240480961923846
102,1.7625244937121864,-1.0,2.082893404525027,-1.0,0.20440881763527052
103,1.762509755450609,-1.0,2.0803136651640046,-1.0,0.2064128256513026
104,1.7623801788763283,-1.0,2.0775917802097457,-1.0,0.20841683366733466
105,1.7621368510708675,-1.0,2.074721835815993,-1.0,0.21042084168336672
106,1.7617889554997557,-1.0,2.0717157285455183,-1.0,0.2124248496993988
107,1.7613456756285226,-1.0,2.0685670815475263,-1.0,0.21442885771543085
108,1.7608161949226973,-1.0,2.065286681032119,-1.0,0.21643286573146292
109,1.7602096968478094,-1.0,2.061870541171835,-1.0,0.21843687374749496
110,1.759535364869388,-1.0,2.0583259631032407,-1.0,0.22044088176352702
111,1.7588023824529624,-1.0,2.05465325922869,-1.0,0.2224448897795591
112,1.7580199330640625,-1.0,2.0508548345787987,-1.0,0.22444889779559116
113,1.7571972001682172,-1.0,2.0469356568627455,-1.0,0.22645290581162322
114,1.7563433672309556,-1.0,2.042894513222207,-1.0,0.2284569138276553
115,1.7554676177178081,-1.0,2.038738891338193,-1.0,0.23046092184368736
116,1.754579135094303,-1.0,2.0344661891357902,-1.0,0.23246492985971942
117,1.7536871028259697,-1.0,2.0300842695744947,-1.0,0.2344689378757515
118,1.7528007043783385,-1.0,2.025591033931776,-1.0,0.23647294589178355
119,1.751929123216938,-1.0,2.0209930527632545,-1.0,0.23847695390781562
120,1.7510740833169969,-1.0,2.0162902067967816,-1.0,0.24048096192384769
121,1.7501923508486368,-1.0,2.0114864693838346,-1.0,0.24248496993987975
122,1.7492738562446175,-1.0,2.0065845987612843,-1.0,0.2444889779559118
123,1.7483167318278818,-1.0,2.0015857242483106,-1.0,0.24649298597194386
124,1.7473191099213734,-1.0,1.996495037274441,-1.0,0.24849699398797592
125,1.7462791228480352,-1.0,1.9913120049462445,-1.0,0.250501002004008
126,1.7451949029308103,-1.0,1.986042767608939,-1.0,0.25250501002004005
127,1.7440645824926426,-1.0,1.9806864865477583,-1.0,0.2545090180360721
128,1.7428862938564744,-1.0,1.9752490148731834,-1.0,0.2565130260521042
129,1.7416581693452493,-1.0,1.969730335117164,-1.0,0.25851703406813625
130,1.7403783412819107,-1.0,1.9641349854977181,-1.0,0.2605210420841683
131,1.7390449419894018,-1.0,1.9584646755407333,-1.0,0.2625250501002004
132,1.7376561037906657,-1.0,1.9527218716668147,-1.0,0.26452905811623245
133,1.7362099590086455,1.7361930480810552,1.9469103310496703,-1.0,0.2665330661322645
134,1.7347046399662849,-1.0,1.9410308547715687,-1.0,0.2685370741482966
135,1.7331382789865264,-1.0,1.9350884214615571,-1.0,0.27054108216432865
136,1.7315090083923137,-1.0,1.9290831081523647,-1.0,0.2725450901803607
137,1.7297996779837155,-1.0,1.9230201497312784,-1.0,0.2745490981963928
138,1.7278795377131475,-1.0,1.9168997993219459,-1.0,0.27655310621242485
139,1.7257374263211906,-1.0,1.9107267073975094,-1.0,0.2785571142284569
140,1.7233961734884824,-1.0,1.904502091807736,-1.0,0.280561122244489
141,1.720878608895659,-1.0,1.8982292771635243,-1.0,0.282565130260521
142,1.7182075622233566,-1.0,1.8919110060120305,-1.0,0.28456913827655306
143,1.7154058631522129,-1.0,1.885549035048197,-1.0,0.2865731462925851
144,1.7124963413628636,-1.0,1.8791474947883235,-1.0,0.2885771543086172
145,1.7095018265359458,-1.0,1.872707152214099,-1.0,0.29058116232464926
146,1.7064451483520964,-1.0,1.8662327432211991,-1.0,0.2925851703406813
147,1.7033491364919517,-1.0,1.8597247965554728,-1.0,0.2945891783567134
148,1.7002366206361488,-1.0,1.8531879325266167,-1.0,0.29659318637274545
149,1.6971304304653239,-1.0,1.8466231341111603,-1.0,0.2985971943887775
150,1.694053395660114,-1.0,1.840034238593168,-1.0,0.3006012024048096
151,1.6910283459011557,-1.0,1.8334233089436691,-1.0,0.30260521042084165
152,1.6880781108690852,-1.0,1.8267928335224384,-1.0,0.3046092184368737
153,1.6852255202445399,-1.0,1.8201462520844567,-1.0,0.3066132264529058
154,1.6824896432000433,-1.0,1.8134848870268259,-1.0,0.30861723446893785
155,1.6798340037738628,-1.0,1.8068130737019552,-1.0,0.3106212424849699
156,1.6772344171866478,1.6758940689405357,1.8001315677299792,-1.0,0.312625250501002
157,1.6746793038058476,-1.0,1.7934449476276977,-1.0,0.31462925851703405
158,1.6721570839989093,-1.0,1.7867540444093828,-1.0,0.3166332665330661
159,1.6696561781332815,-1.0,1.7800842129468193,-1.0,0.3186372745490982
160,1.6671650065764128,-1.0,1.773376313025369,1.7718244135065562,0.32064128256513025
161,1.6646719896957514,-1.0,1.766561256299073,-1.0,0.3226452905811623
162,1.6621655478587454,-1.0,1.7595301775686187,-1.0,0.3246492985971944
163,1.659634101432843,-1.0,1.7521653980367133,-1.0,0.32665330661322645
164,1.657066070785493,-1.0,1.7445204698113834,-1.0,0.3286573146292585
165,1.654449876284143,-1.0,1.7365881162998156,-1.0,0.3306613226452906
166,1.6517739382962422,-1.0,1.7283903259519977,-1.0,0.33266533066132264
167,1.6490266771892381,-1.0,1.719919258792975,-1.0,0.33466933867735466
168,1.6461965133305794,-1.0,1.7111952437320546,-1.0,0.3366733466933867
169,1.6432718670877138,-1.0,1.702213969958962,-1.0,0.3386773547094188
170,1.6402411588280903,-1.0,1.6929903327492355,-1.0,0.34068136272545085
171,1.6370929383969668,-1.0,1.6835269635732792,-1.0,0.3426853707414829
172,1.633822971198475,-1.0,1.6738306092608823,-1.0,0.344689378757515
173,1.630436787646771,-1.0,1.6639118379562439,-1.0,0.34669338677354705
174,1.6269404698446859,1.6257446949344019,1.6537710254167397,-1.0,0.3486973947895791
175,1.6233400998950513,-1.0,1.6434233374811593,-1.0,0.3507014028056112
176,1.6196417599006987,-1.0,1.632866489065267,-1.0,0.35270541082164325
177,1.6158515319644586,-1.0,1.6221165447517096,-1.0,0.3547094188376753
178,1.6119754981891636,-1.0,1.6111718776096784,-1.0,0.3567134268537074
179,1.608019740677644,-1.0,1.600046474009483,-1.0,0.35871743486973945
180,1.6039903415327312,-1.0,1.5887420480140249,-1.0,0.3607214428857715
181,1.599893382857257,-1.0,1.5772680891466087,-1.0,0.3627254509018036
182,1.595734946754052,-1.0,1.56563142470951,-1.0,0.36472945891783565
183,1.5915211153259485,-1.0,1.5538363170862377,-1.0,0.3667334669338677
184,1.5872579706757772,-1.0,1.5418941818708152,-1.0,0.3687374749498998
185,1.5829515949063693,-1.0,1.529806057962875,-1.0,0.37074148296593185
186,1.5786080701205563,-1.0,1.5175852973557817,-1.0,0.3727454909819639
187,1.5742334784211696,-1.0,1.5052321930670125,-1.0,0.374749498997996
188,1.569833098019169,-1.0,1.492759728164455,-1.0,0.37675350701402804
189,1.565380658639848,-1.0,1.480169591219063,-1.0,0.3787575150300601
190,1.5608606966786345,-1.0,1.467472402179114,-1.0,0.3807615230460922
191,1.5562728150266558,-1.0,1.4546730639375396,-1.0,0.38276553106212424
192,1.5516166165750407,-1.0,1.4417782257136929,-1.0,0.38476953907815625
193,1.5468917042149164,1.5426252357174985,1.428796814866489,-1.0,0.3867735470941883
194,1.5420976808374114,-1.0,1.4157320897741932,-1.0,0.3887775551102204
195,1.5372341493336537,-1.0,1.4025955619120785,-1.0,0.39078156312625245
196,1.5323007125947705,-1.0,1.3893888753925303,-1.0,0.3927855711422845
197,1.5272969735118909,-1.0,1.3761242251142114,-1.0,0.3947895791583166
198,1.5222225349761422,-1.0,1.3628034583110147,-1.0,0.39679358717434865
199,1.5170769998786529,-1.0,1.3494377078410944,-1.0,0.3987975951903807
200,1.51185997111055,-1.0,1.3360307132366294,-1.0,0.4008016032064128
201,1.5065710515629624,-1.0,1.3225909018948783,-1.0,0.40280561122244485
202,1.501209844127018,-1.0,1.309125242587046,-1.0,0.4048096192384769
203,1.4957759516938443,-1.0,1.2956386921090624,-1.0,0.406813627254509
204,1.4902689771545696,-1.0,1.2821414007190404,-1.0,0.40881763527054105
205,1.4846882540233097,-1.0,1.2686359606226034,-1.0,0.4108216432865731
206,1.4790077987940247,-1.0,1.255134067884149,-1.0,0.4128256513026052
207,1.473214035953636,-1.0,1.2416375909925725,-1.0,0.41482965931863724
208,1.4673117235125543,-1.0,1.228158130324678,-1.0,0.4168336673346693
209,1.4613056194811895,-1.0,1.2146984722945897,-1.0,0.4188376753507014
210,1.4552004818699509,-1.0,1.2012684702187757,-1.0,0.42084168336673344
211,1.4490010686892487,1.4489740669704918,1.1878734636759147,-1.0,0.4228456913827655
212,1.442712137949493,-1.0,1.1745199697582642,-1.0,0.4248496993987976
213,1.4363384476610932,-1.0,1.161216862795598,-1.0,0.42685370741482964
214,1.4298847558344598,-1.0,1.1479675153052464,-1.0,0.4288577154308617
215,1.4233558204800023,-1.0,1.1347833442199509,-1.0,0.4308617234468938
216,1.4167563996081303,-1.0,1.121666001781386,-1.0,0.43286573146292584
217,1.4100912512292545,-1.0,1.108627781282791,-1.0,0.4348697394789579
218,1.4033651333537844,-1.0,1.0956703374615901,-1.0,0.4368737474949899
219,1.3965828039921293,-1.0,1.0828050497480108,-1.0,0.438877755511022
220,1.3897490211547,-1.0,1.0700354493733577,-1.0,0.44088176352705405
221,1.3828685428519056,-1.0,1.0573700321977682,-1.0,0.4428857715430861
222,1.3759460544094415,-1.0,1.0448159667128838,-1.0,0.4448897795591182
223,1.3689270995221101,-1.0,1.0323776229416264,-1.0,0.44689378757515025
224,1.3617706758476442,1.3613212373436456,1.0200661267699718,-1.0,0.4488977955911823
225,1.3544898651634478,-1.0,1.0078827336908116,-1.0,0.4509018036072144
226,1.3470977492469232,-1.0,0.9958407706465872,-1.0,0.45290581162324645
227,1.3396074098754736,-1.0,0.9839403003117814,-1.0,0.4549098196392785
228,1.3320319288265015,-1.0,0.9721947682156932,-1.0,0.4569138276553106
229,1.32438438787741,-1.0,0.9606052910771258,-1.0,0.45891783567134264
230,1.3166778688056022,-1.0,0.9491830037036609,-1.0,0.4609218436873747
231,1.3089254533884809,-1.0,0.937932661538201,-1.0,0.4629258517034068
232,1.3011402234034493,-1.0,0.9268603825962544,-1.0,0.46492985971943884
233,1.2933352606279098,-1.0,0.9159764621580019,-1.0,0.4669338677354709
234,1.2855236468392657,-1.0,0.9052818403769084,-1.0,0.468937875751503
235,1.2777184638149197,-1.0,0.8947912175635786,-1.0,0.47094188376753504
236,1.2699327933322753,-1.0,0.8845023538890763,-1.0,0.4729458917835671
237,1.2621797171687343,1.2546040689104343,0.8744317857818136,-1.0,0.4749498997995992
238,1.2544723171017007,-1.0,0.864576956488802,-1.0,0.47695390781563124
239,1.2468236749085768,-1.0,0.8549530477315882,-1.0,0.4789579158316633
240,1.2391936149935618,-1.0,0.8455607587482723,-1.0,0.48096192384769537
241,1.2315293440495885,-1.0,0.8364099184023851,-1.0,0.48296593186372744
242,1.2238375808789004,-1.0,0.8275089272036453,-1.0,0.4849699398797595
243,1.2161251276412222,-1.0,0.8188730621347422,-1.0,0.48697394789579157
244,1.2083987864962797,-1.0,0.8104602839017304,0.8082642157068651,0.4889779559118236
245,1.200665359603799,-1.0,0.8022718541484012,-1.0,0.49098196392785565
246,1.192931649123504,-1.0,0.7940987674498426,-1.0,0.4929859719438877
247,1.1852044572151206,-1.0,0.7859274261386605,-1.0,0.4949899799599198
248,1.177490586038374,-1.0,0.7777604682216364,-1.0,0.49699398797595185
249,1.169796837752989,-1.0,0.7696001548837461,-1.0,0.4989979959919839
250,1.1621300145186921,-1.0,0.761449302856101,-1.0,0.501002004008016
251,1.1544969184952076,1.1497464607478436,0.7533090839475359,-1.0,0.503006012024048
252,1.1469043518422604,-1.0,0.7451810023692558,-1.0,0.5050100200400801
253,1.1393591167195767,-1.0,0.7370670144680702,-1.0,0.5070140280561122
254,1.1318680152868816,-1.0,0.7289679224981788,-1.0,0.5090180360721442
255,1.1244378497038998,-1.0,0.7208862509769596,-1.0,0.5110220440881763
256,1.1170754221303572,-1.0,0.7128224198204018,-1.0,0.5130260521042084
257,1.1097456551881595,-1.0,0.7047791478483384,-1.0,0.5150300601202404
258,1.102394415695588,-1.0,0.6967568521268687,-1.0,0.5170340681362725
259,1.0950326497078937,-1.0,0.6887580598154954,-1.0,0.5190380761523046
260,1.0876719872810374,-1.0,0.6807835788148611,-1.0,0.5210420841683366
261,1.080324058470981,-1.0,0.6728353423301815,-1.0,0.5230460921843687
262,1.0730004933336859,-1.0,0.6649149023603296,-1.0,0.5250501002004008
263,1.0657129219251145,-1.0,0.6570233519399421,-1.0,0.5270541082164328
264,1.058472974301228,-1.0,0.6491630415438345,-1.0,0.5290581162324649
265,1.0512922805179878,-1.0,0.6413344466892668,-1.0,0.531062124248497
266,1.044182470631356,-1.0,0.6335403442711173,-1.0,0.533066132264529
267,1.037155174697294,-1.0,0.6257809865511066,-1.0,0.5350701402805611
268,1.0302220227717638,1.0248059123309803,0.6180591651392474,-1.0,0.5370741482965932
269,1.0233946449107267,-1.0,0.6103753338963804,-1.0,0.5390781563126252
270,1.0166846711701443,-1.0,0.6027318600880138,-1.0,0.5410821643286573
271,1.0101037316059784,-1.0,0.5951298467939997,-1.0,0.5430861723446894
272,1.0036634562741913,-1.0,0.5875707868381379,-1.0,0.5450901803607214
273,0.9973754752307435,-1.0,0.5800567317582959,-1.0,0.5470941883767535
274,0.9912499925724733,-1.0,0.5725883053727965,-1.0,0.5490981963927856
275,0.9852806941256711,-1.0,0.5651682793168087,-1.0,0.5511022044088176
276,0.979451678925943,-1.0,0.5577967784724304,-1.0,0.5531062124248497
277,0.9737469606901229,-1.0,0.5504768440784239,-1.0,0.5551102204408818
278,0.9681505531350453,-1.0,0.543208572314863,-1.0,0.5571142284569138
