,velocity,vel_ori,density,den_ori,eta
0,0.0,0.0,1.595149584351296,-1.0,0.0
1,0.07660637811963908,-1.0,1.595149584351296,-1.0,0.002004008016032064
2,0.14959599420552458,-1.0,1.595149584351296,-1.0,0.004008016032064128
3,0.21897937621981653,-1.0,1.595149584351296,-1.0,0.0060120240480961915
4,0.2847670521246751,-1.0,1.595149584351296,-1.0,0.008016032064128256
5,0.34696954988226014,-1.0,1.595149584351296,-1.0,0.01002004008016032
6,0.4055973974547319,-1.0,1.595149584351296,-1.0,0.012024048096192383
7,0.46066112280425037,-1.0,1.595149584351296,-1.0,0.014028056112224447
8,0.5121712538929757,-1.0,1.595149584351296,-1.0,0.01603206412825651
9,0.5601383186830678,-1.0,1.595149584351296,-1.0,0.018036072144288574
10,0.6045728451366869,-1.0,1.595149584351296,-1.0,0.02004008016032064
11,0.6454853612159928,-1.0,1.595149584351296,-1.0,0.022044088176352703
12,0.6828863948831461,0.7014242244593323,1.595149584351296,-1.0,0.024048096192384766
13,0.7160811732456867,-1.0,1.595149584351296,-1.0,0.026052104208416832
14,0.7421378017819061,-1.0,1.595149584351296,-1.0,0.028056112224448895
15,0.7652516515713177,-1.0,1.595149584351296,-1.0,0.03006012024048096
16,0.7907993457225729,0.8060656006024494,1.595149584351296,-1.0,0.03206412825651302
17,0.8265351193411649,-1.0,1.595149584351296,-1.0,0.03406813627254509
18,0.8819070627396144,-1.0,1.595149584351296,-1.0,0.03607214428857715
19,0.9390892953010959,-1.0,1.595149584351296,-1.0,0.038076152304609215
20,0.9768396410759593,0.9818304120928415,1.595149584351296,-1.0,0.04008016032064128
21,0.9818304120928415,-1.0,1.595149584351296,-1.0,0.04208416833667334
22,0.9818304120928415,-1.0,1.595149584351296,-1.0,0.044088176352705406
23,0.9818304120928415,-1.0,1.595149584351296,-1.0,0.04609218436873747
24,0.9818304120928415,0.9818304120928415,1.595149584351296,-1.0,0.04809619238476953
25,0.985165608473674,-1.0,1.595149584351296,1.595149584351296,0.0501002004008016
26,1.0026337238248189,-1.0,1.595149584351296,-1.0,0.052104208416833664
27,1.0264214253418713,-1.0,1.595149584351296,-1.0,0.05410821643286573
28,1.046629594867802,1.0521363366889982,1.595149584351296,-1.0,0.05611222444889779
29,1.055815012410077,-1.0,1.595149584351296,-1.0,0.058116232464929855
30,1.0615868483275082,-1.0,1.595149584351296,-1.0,0.06012024048096192
31,1.0660648139253943,-1.0,1.595149584351296,-1.0,0.06212424849699398
32,1.0697035289213672,-1.0,1.595149584351296,-1.0,0.06412825651302605
33,1.0729576130330576,-1.0,1.595149584351296,-1.0,0.06613226452905811
34,1.076281685978097,-1.0,1.595149584351296,-1.0,0.06813627254509018
35,1.080130367474117,-1.0,1.595149584351296,-1.0,0.07014028056112225
36,1.0849582772387494,1.0872892989870768,1.595149584351296,-1.0,0.0721442885771543
37,1.0916401794016788,-1.0,1.595149584351296,-1.0,0.07414829659318636
38,1.1011411203727832,-1.0,1.595149584351296,-1.0,0.07615230460921843
39,1.1112642119978262,-1.0,1.595149584351296,-1.0,0.0781563126252505
40,1.1195401384078851,1.1216247505340373,1.595149584351296,-1.0,0.08016032064128256
41,1.1244722286443427,-1.0,1.595149584351296,-1.0,0.08216432865731463
42,1.128311006153757,-1.0,1.595149584351296,-1.0,0.08416833667334668
43,1.131478220595369,-1.0,1.595149584351296,1.595149584351296,0.08617234468937875
44,1.1341278663350436,-1.0,1.5948226382410342,-1.0,0.08817635270541081
45,1.136413937738647,-1.0,1.5932252146079313,-1.0,0.09018036072144288
46,1.1384904291720443,-1.0,1.5904072810246541,-1.0,0.09218436873747494
47,1.1405113350011022,-1.0,1.586490650490237,-1.0,0.09418837675350701
48,1.142630649591685,-1.0,1.5815971360037147,-1.0,0.09619238476953906
49,1.1450023673096592,-1.0,1.5758485505641213,-1.0,0.09819639278557113
50,1.1477804825208908,-1.0,1.569366707170569,-1.0,0.1002004008016032
51,1.1511189895912444,-1.0,1.5622734188219896,-1.0,0.10220440881763526
52,1.1551718828865862,1.1567777128321157,1.554690498517494,-1.0,0.10420841683366733
53,1.1608760927937802,-1.0,1.546739759256092,-1.0,0.1062124248496994
54,1.1699029182375331,-1.0,1.5385430140368692,-1.0,0.10821643286573146
55,1.1801318924978041,-1.0,1.5302220758587828,-1.0,0.11022044088176351
56,1.1891682542235225,1.1919306751301941,1.5218987577209706,-1.0,0.11222444889779558
57,1.195296801891215,-1.0,1.5136948726223896,-1.0,0.11422845691382764
58,1.2001016508316915,-1.0,1.5057322335621517,-1.0,0.11623246492985971
59,1.2041401219866028,-1.0,1.498132653539266,-1.0,0.11823647294589178
60,1.2077333097475755,-1.0,1.4910179455527668,-1.0,0.12024048096192384
61,1.2112023085062371,-1.0,1.4845099226016627,-1.0,0.1222444889779559
62,1.214868212654215,-1.0,1.4787303976850659,1.4753261413953254,0.12424849699398796
63,1.219052116583137,-1.0,1.4737388160640077,-1.0,0.12625250501002003
64,1.2240751146846294,1.2270836374282725,1.4688077616077317,-1.0,0.1282565130260521
65,1.2309688283173716,-1.0,1.4637293954959527,-1.0,0.13026052104208416
66,1.2425113682146463,-1.0,1.4585471953559308,-1.0,0.13226452905811623
67,1.2545174501257275,-1.0,1.4533046388150286,-1.0,0.1342685370741483
68,1.2617683881829096,1.2622365997263507,1.448045203500506,-1.0,0.13627254509018036
69,1.2622365997263507,-1.0,1.4428123670397777,-1.0,0.13827655310621242
70,1.2622365997263507,-1.0,1.437649607060026,-1.0,0.1402805611222445
71,1.2622365997263507,-1.0,1.4326004011886138,-1.0,0.14228456913827653
72,1.2622365997263507,-1.0,1.427708227052878,-1.0,0.1442885771543086
73,1.2622365997263507,-1.0,1.4230165622801305,-1.0,0.14629258517034066
74,1.2622365997263507,-1.0,1.4185688844976567,-1.0,0.14829659318637273
75,1.2622365997263507,-1.0,1.4144086713327677,-1.0,0.1503006012024048
76,1.2622365997263507,1.2622365997263507,1.410579400412801,-1.0,0.15230460921843686
77,1.2622365997263507,-1.0,1.407124549365042,-1.0,0.15430861723446893
78,1.2622365997263507,-1.0,1.4040875958168277,-1.0,0.156312625250501
79,1.2622365997263507,-1.0,1.4015120173954438,-1.0,0.15831663326653306
80,1.2622365997263507,1.2622365997263507,1.399441291728176,-1.0,0.16032064128256512
81,1.2659609327564774,-1.0,1.397918896442413,-1.0,0.1623246492985972
82,1.2771134711134695,-1.0,1.3969883091653887,1.3966920069554747,0.16432865731462926
83,1.2895840075439775,-1.0,1.3966932746296659,-1.0,0.16633266533066132
84,1.2970465011565189,1.2973895620244291,1.3971516143859386,-1.0,0.16833667334669336
85,1.2973895620244291,-1.0,1.3983712621085702,-1.0,0.17034068136272543
86,1.2973895620244291,-1.0,1.400258941075149,-1.0,0.1723446893787575
87,1.2973895620244291,-1.0,1.402721374563263,-1.0,0.17434869739478956
88,1.2973895620244291,-1.0,1.4056652858506036,-1.0,0.17635270541082163
89,1.2973895620244291,-1.0,1.4089973982146557,-1.0,0.1783567134268537
90,1.2973895620244291,-1.0,1.4126244349331107,-1.0,0.18036072144288576
91,1.2973895620244291,-1.0,1.4164531192835828,-1.0,0.18236472945891782
92,1.2973895620244291,1.2973895620244291,1.420390174543608,-1.0,0.1843687374749499
93,1.3013040026791813,-1.0,1.4243423239908524,-1.0,0.18637274549098196
94,1.3142160247607217,-1.0,1.4282162909029554,-1.0,0.18837675350701402
95,1.3275926132809655,1.3325425243225077,1.431918798557428,-1.0,0.1903807615230461
96,1.3325425243225077,-1.0,1.4353565702319615,-1.0,0.19238476953907813
97,1.3325425243225077,-1.0,1.4384363292040923,-1.0,0.1943887775551102
98,1.3325425243225077,-1.0,1.4410647987514862,-1.0,0.19639278557114226
99,1.3325425243225077,-1.0,1.443148702151731,-1.0,0.19839679358717432
100,1.3325425243225077,1.3325425243225077,1.4445947626824411,-1.0,0.2004008016032064
101,1.3325425243225077,-1.0,1.4453097036212044,1.4453702806563458,0.20240480961923846
102,1.3325425243225077,-1.0,1.4453668570485514,-1.0,0.20440881763527052
103,1.3325425243225077,-1.0,1.4453471032304088,-1.0,0.2064128256513026
104,1.3325425243225077,-1.0,1.4453099861213605,-1.0,0.20841683366733466
105,1.3325425243225077,-1.0,1.4452557427322328,-1.0,0.21042084168336672
106,1.3325425243225077,-1.0,1.4451846100738006,-1.0,0.2124248496993988
107,1.3325425243225077,-1.0,1.4450968251569682,-1.0,0.21442885771543085
108,1.3325425243225077,-1.0,1.4449926249924845,-1.0,0.21643286573146292
109,1.3325425243225077,-1.0,1.4448722465912793,-1.0,0.21843687374749496
110,1.3325425243225077,-1.0,1.4447359269641273,-1.0,0.22044088176352702
111,1.3325425243225077,-1.0,1.444583903121804,-1.0,0.2224448897795591
112,1.3325425243225077,1.3325425243225077,1.4444164120752128,-1.0,0.22444889779559116
113,1.3366027509512153,-1.0,1.444233690835129,-1.0,0.22645290581162322
114,1.3482273410343928,-1.0,1.444035976412482,-1.0,0.2284569138276553
115,1.360817189424505,-1.0,1.443823505817918,-1.0,0.23046092184368736
116,1.3675945599813375,1.3676954866205862,1.4435965160624442,-1.0,0.23246492985971942
117,1.3676954866205862,-1.0,1.4433552441568094,-1.0,0.2344689378757515
118,1.3676954866205862,-1.0,1.4430999271118405,-1.0,0.23647294589178355
119,1.3676954866205862,-1.0,1.442830801938364,-1.0,0.23847695390781562
120,1.3676954866205862,1.3676954866205862,1.442548105647232,-1.0,0.24048096192384769
121,1.3715963992726252,-1.0,1.4422520752492454,-1.0,0.24248496993987975
122,1.3831411657893709,-1.0,1.4419429477552823,-1.0,0.2444889779559118
123,1.3957737217669515,-1.0,1.4416209601761176,-1.0,0.24649298597194386
124,1.4027163310651534,1.4028484489186646,1.441286349522578,-1.0,0.24849699398797592
125,1.4028484489186646,-1.0,1.4409393528055416,-1.0,0.250501002004008
126,1.4028484489186646,-1.0,1.4405802070357574,-1.0,0.25250501002004005
127,1.4028484489186646,-1.0,1.4402091492241296,-1.0,0.2545090180360721
128,1.4028484489186646,1.4028484489186646,1.4398264163814587,-1.0,0.2565130260521042
129,1.4073118246793879,-1.0,1.439432245518571,-1.0,0.25851703406813625
130,1.41889387459451,-1.0,1.439026873646294,-1.0,0.2605210420841683
131,1.4310479763339214,-1.0,1.438610537775453,-1.0,0.2625250501002004
132,1.437154015528111,1.4371839004656248,1.4381834749169013,-1.0,0.26452905811623245
133,1.4371839004656248,-1.0,1.4377459220814133,-1.0,0.2665330661322645
134,1.4371839004656248,-1.0,1.4372981162798675,-1.0,0.2685370741482966
135,1.4371839004656248,-1.0,1.4368402945230645,-1.0,0.27054108216432865
136,1.4371839004656248,1.4371839004656248,1.4363726938218564,-1.0,0.2725450901803607
137,1.4371839004656248,-1.0,1.4358955511870186,-1.0,0.2745490981963928
138,1.4371839004656248,-1.0,1.4354091036294805,-1.0,0.27655310621242485
139,1.4371839004656248,-1.0,1.4349135881599655,-1.0,0.2785571142284569
140,1.4371839004656248,1.4371839004656248,1.4344092417893517,-1.0,0.280561122244489
141,1.4371839004656248,-1.0,1.4338963015284658,-1.0,0.282565130260521
142,1.4371839004656248,-1.0,1.4333750043881086,-1.0,0.28456913827655306
143,1.4371839004656248,-1.0,1.4328455873791321,-1.0,0.2865731462925851
144,1.4371839004656248,1.4371839004656248,1.432308287512389,-1.0,0.2885771543086172
145,1.442286062722299,-1.0,1.43176334179868,-1.0,0.29058116232464926
146,1.45435583998165,-1.0,1.4312109872488055,-1.0,0.2925851703406813
147,1.466631703145707,-1.0,1.430651460873644,1.430392350286843,0.2945891783567134
148,1.4723359160742557,1.472336862763703,1.4300626746314584,-1.0,0.29659318637274545
149,1.472336862763703,-1.0,1.4293329600030573,-1.0,0.2985971943887775
150,1.472336862763703,-1.0,1.4284519004800285,-1.0,0.3006012024048096
151,1.472336862763703,-1.0,1.427425335416678,-1.0,0.30260521042084165
152,1.472336862763703,1.472336862763703,1.4262591041673638,-1.0,0.3046092184368737
153,1.472336862763703,-1.0,1.424959046086289,-1.0,0.3066132264529058
154,1.472336862763703,-1.0,1.4235310005277346,-1.0,0.30861723446893785
155,1.472336862763703,-1.0,1.4219808068459807,-1.0,0.3106212424849699
156,1.472336862763703,1.472336862763703,1.4203143043953337,-1.0,0.312625250501002
157,1.4776243580112665,-1.0,1.4185373325300483,-1.0,0.31462925851703405
158,1.489761088433195,-1.0,1.416655730604405,-1.0,0.3166332665330661
159,1.5019753772362225,1.5074898250617816,1.4146753379727102,-1.0,0.3186372745490982
160,1.5074898250617816,-1.0,1.4126019939891672,-1.0,0.32064128256513025
161,1.5074898250617816,-1.0,1.4104415380081337,-1.0,0.3226452905811623
162,1.5074898250617816,-1.0,1.4081998093838388,-1.0,0.3246492985971944
163,1.5074898250617816,1.5074898250617816,1.4058826474705628,-1.0,0.32665330661322645
164,1.5074898250617816,-1.0,1.403495891622638,-1.0,0.3286573146292585
165,1.5074898250617816,-1.0,1.4010453811942676,-1.0,0.3306613226452906
166,1.5074898250617816,-1.0,1.3985369555397835,-1.0,0.33266533066132264
167,1.5074898250617816,-1.0,1.395976454013415,-1.0,0.33466933867735466
168,1.5074898250617816,1.5074898250617816,1.393369715969494,-1.0,0.3366733466933867
169,1.5074898250617816,-1.0,1.3907225807622752,-1.0,0.3386773547094188
170,1.5074898250617816,-1.0,1.3880408877459876,-1.0,0.34068136272545085
171,1.5074898250617816,1.5074898250617816,1.385330476274989,-1.0,0.3426853707414829
172,1.5074898250617816,-1.0,1.3825971857035342,-1.0,0.344689378757515
173,1.5074898250617816,-1.0,1.3798468553858523,-1.0,0.34669338677354705
174,1.5074898250617816,-1.0,1.3770853246763013,-1.0,0.3486973947895791
175,1.5074898250617816,1.5074898250617816,1.374318432929058,-1.0,0.3507014028056112
176,1.5074898250617816,-1.0,1.3715520194985067,-1.0,0.35270541082164325
177,1.5074898250617816,-1.0,1.3687919237388246,-1.0,0.3547094188376753
178,1.5074898250617816,-1.0,1.3660439850043953,-1.0,0.3567134268537074
179,1.5074898250617816,1.5074898250617816,1.363314042649422,-1.0,0.35871743486973945
180,1.5074898250617816,-1.0,1.360607936028185,-1.0,0.3607214428857715
181,1.5074898250617816,-1.0,1.3579315044949911,-1.0,0.3627254509018036
182,1.5074898250617816,-1.0,1.3552905874041206,-1.0,0.36472945891783565
183,1.5074898250617816,1.5074898250617816,1.352691024109828,-1.0,0.3667334669338677
184,1.5074898250617816,-1.0,1.3501386539663685,-1.0,0.3687374749498998
185,1.5074898250617816,-1.0,1.3476393163280738,-1.0,0.37074148296593185
186,1.5074898250617816,-1.0,1.345198850549199,-1.0,0.3727454909819639
187,1.5074898250617816,-1.0,1.3428230959840244,-1.0,0.374749498997996
188,1.5074898250617816,1.5074898250617816,1.3405178919868048,-1.0,0.37675350701402804
189,1.5074898250617816,-1.0,1.3382890779118464,-1.0,0.3787575150300601
190,1.5074898250617816,-1.0,1.33614249311343,-1.0,0.3807615230460922
191,1.5074898250617816,1.5074898250617816,1.3340839769458102,-1.0,0.38276553106212424
192,1.5074898250617816,-1.0,1.3321193687632675,-1.0,0.38476953907815625
193,1.5074898250617816,-1.0,1.3302545079200825,1.3292913202926864,0.3867735470941883
194,1.5074898250617816,-1.0,1.3284890436032213,-1.0,0.3887775551102204
195,1.5074898250617816,1.5074898250617816,1.326782085965632,-1.0,0.39078156312625245
196,1.5074898250617816,-1.0,1.3251229929307966,-1.0,0.3927855711422845
197,1.5074898250617816,-1.0,1.3235092344391577,-1.0,0.3947895791583166
198,1.5074898250617816,-1.0,1.3219382804309001,-1.0,0.39679358717434865
199,1.5074898250617816,1.5074898250617816,1.3204076008464145,-1.0,0.3987975951903807
200,1.5074898250617816,-1.0,1.3189146656259894,-1.0,0.4008016032064128
201,1.5074898250617816,-1.0,1.3174569447099378,-1.0,0.40280561122244485
202,1.5074898250617816,-1.0,1.3160319080386251,-1.0,0.4048096192384769
203,1.5074898250617816,1.5074898250617816,1.3146370255523137,-1.0,0.406813627254509
204,1.5074898250617816,-1.0,1.3132697671912912,-1.0,0.40881763527054105
205,1.5074898250617816,-1.0,1.3119276028959486,-1.0,0.4108216432865731
206,1.5074898250617816,-1.0,1.310608002606548,-1.0,0.4128256513026052
207,1.5074898250617816,1.5074898250617816,1.309308436263455,-1.0,0.41482965931863724
208,1.5074898250617816,-1.0,1.3080263738069056,-1.0,0.4168336673346693
209,1.5074898250617816,-1.0,1.3067592851772647,-1.0,0.4188376753507014
210,1.5074898250617816,-1.0,1.3055046403148725,-1.0,0.42084168336673344
211,1.5074898250617816,1.5074898250617816,1.3042599091599647,-1.0,0.4228456913827655
212,1.5074898250617816,-1.0,1.303022561652984,-1.0,0.4248496993987976
213,1.5074898250617816,-1.0,1.3017900677340895,-1.0,0.42685370741482964
214,1.5074898250617816,-1.0,1.3005598973437238,-1.0,0.4288577154308617
215,1.5074898250617816,1.5074898250617816,1.2993295204220974,-1.0,0.4308617234468938
216,1.5073601147140931,-1.0,1.2980964069096268,-1.0,0.43286573146292584
217,1.5015336874437415,-1.0,1.2968580267465228,-1.0,0.4348697394789579
218,1.4905672355250763,-1.0,1.2956118498732283,-1.0,0.4368737474949899
219,1.479333421241988,-1.0,1.2943553462299273,-1.0,0.438877755511022
220,1.4727049068783669,1.472336862763703,1.2930859857570114,-1.0,0.44088176352705405
221,1.472336862763703,-1.0,1.291801238394794,-1.0,0.4428857715430861
222,1.472336862763703,-1.0,1.2904985740835373,-1.0,0.4448897795591182
223,1.472336862763703,1.472336862763703,1.2891754627636065,-1.0,0.44689378757515025
224,1.472336862763703,-1.0,1.2878293743753153,-1.0,0.4488977955911823
225,1.472336862763703,-1.0,1.2864577788589513,-1.0,0.4509018036072144
226,1.472336862763703,-1.0,1.2850581461548802,-1.0,0.45290581162324645
227,1.472336862763703,1.472336862763703,1.283627946203338,-1.0,0.4549098196392785
228,1.472336862763703,-1.0,1.2821646489446898,-1.0,0.4569138276553106
229,1.472336862763703,-1.0,1.2806657243192756,-1.0,0.45891783567134264
230,1.472336862763703,-1.0,1.279128642267357,-1.0,0.4609218436873747
231,1.472336862763703,1.472336862763703,1.2775508727292477,-1.0,0.4629258517034068
232,1.4720430767950634,-1.0,1.2759298856452872,-1.0,0.46492985971943884
233,1.464472567766993,-1.0,1.274263150955815,-1.0,0.4669338677354709
234,1.4516936365456756,-1.0,1.2725481386010935,-1.0,0.468937875751503
235,1.4404840192713255,1.4371839004656248,1.2707823185214873,-1.0,0.47094188376753504
236,1.4371839004656248,-1.0,1.2689631606572847,-1.0,0.4729458917835671
237,1.4371839004656248,-1.0,1.2670881349487992,-1.0,0.4749498997995992
238,1.4371839004656248,-1.0,1.2651547113363446,-1.0,0.47695390781563124
239,1.4371839004656248,1.4371839004656248,1.2631603597602343,1.261890633630027,0.4789579158316633
240,1.4371839004656248,-1.0,1.2611009128460529,-1.0,0.48096192384769537
241,1.4371839004656248,-1.0,1.2589584158245812,-1.0,0.48296593186372744
242,1.4371839004656248,-1.0,1.256729841584842,-1.0,0.4849699398797595
243,1.4371839004656248,1.4371839004656248,1.2544168158408455,-1.0,0.48697394789579157
244,1.4371839004656248,-1.0,1.2520209643065494,-1.0,0.4889779559118236
245,1.4371839004656248,-1.0,1.2495439126959123,-1.0,0.49098196392785565
246,1.4371839004656248,-1.0,1.2469872867229435,-1.0,0.4929859719438877
247,1.4371839004656248,1.4371839004656248,1.244352712101653,-1.0,0.4949899799599198
248,1.4371839004656248,-1.0,1.2416418145459478,-1.0,0.49699398797595185
249,1.4371839004656248,-1.0,1.238856219769837,-1.0,0.4989979959919839
250,1.4371839004656248,-1.0,1.2359975534873306,-1.0,0.501002004008016
251,1.4371839004656248,1.4371839004656248,1.2330674414123355,-1.0,0.503006012024048
252,1.4366011320240633,-1.0,1.2300675092589126,-1.0,0.5050100200400801
253,1.4284539940436094,-1.0,1.2269993827409686,-1.0,0.5070140280561122
254,1.4158355386860795,-1.0,1.2238646875725394,-1.0,0.5090180360721442
255,1.4053658803209859,1.4028484489186646,1.2206650494675828,-1.0,0.5110220440881763
256,1.4028484489186646,-1.0,1.2174020941400314,-1.0,0.5130260521042084
257,1.4028484489186646,-1.0,1.2140774473039464,-1.0,0.5150300601202404
258,1.4028484489186646,-1.0,1.2106927346732343,-1.0,0.5170340681362725
259,1.4028484489186646,1.4028484489186646,1.207249581961931,-1.0,0.5190380761523046
260,1.4028484489186646,-1.0,1.2037496148839688,-1.0,0.5210420841683366
261,1.4028484489186646,-1.0,1.2001944591533573,-1.0,0.5230460921843687
262,1.4028484489186646,-1.0,1.1965857404840805,-1.0,0.5250501002004008
263,1.4028484489186646,1.4028484489186646,1.1929250845900967,-1.0,0.5270541082164328
264,1.4028484489186646,-1.0,1.189214117185364,-1.0,0.5290581162324649
265,1.4028484489186646,-1.0,1.1854544639838922,-1.0,0.531062124248497
266,1.4028484489186646,-1.0,1.1816477506996652,-1.0,0.533066132264529
267,1.4028484489186646,1.4028484489186646,1.1777956030466414,-1.0,0.5350701402805611
268,1.4028484489186646,-1.0,1.1738996467388045,-1.0,0.5370741482965932
269,1.4028484489186646,-1.0,1.1699615074901386,-1.0,0.5390781563126252
