,velocity,vel_ori,density,den_ori,eta
0,0.0,0.0,2.0542556943810304,-1.0,0.0
1,0.07576215370472467,-1.0,2.053677534626152,-1.0,0.002004008016032064
2,0.1502528533372726,-1.0,2.0530993748712647,-1.0,0.004008016032064128
3,0.22338251020170116,-1.0,2.052521215116382,-1.0,0.0060120240480961915
4,0.29506153560206766,-1.0,2.0519430553614995,-1.0,0.008016032064128256
5,0.3652003408424295,-1.0,2.051364895606617,-1.0,0.01002004008016032
6,0.4337093372268439,-1.0,2.050786735851734,-1.0,0.012024048096192383
7,0.5004989360593681,-1.0,2.0502085760968516,-1.0,0.014028056112224447
8,0.5654795486440598,-1.0,2.049630416341969,-1.0,0.01603206412825651
9,0.628561586284976,-1.0,2.0490522565870815,-1.0,0.018036072144288574
10,0.6896554602861742,-1.0,2.048474096832199,-1.0,0.02004008016032064
11,0.7486715819517117,-1.0,2.0478959370773158,-1.0,0.022044088176352703
12,0.8055203625856456,-1.0,2.047317777322433,-1.0,0.024048096192384766
13,0.8601122134920335,-1.0,2.0467396175675505,-1.0,0.026052104208416832
14,0.9123575459749328,-1.0,2.046161457812668,-1.0,0.028056112224448895
15,0.9621667713384006,-1.0,2.0455832980577804,-1.0,0.03006012024048096
16,1.0094503008864943,-1.0,2.0450051383028978,-1.0,0.03206412825651302
17,1.0541207943216244,-1.0,2.044426978548015,-1.0,0.03406813627254509
18,1.0977184542315197,-1.0,2.0438488187931325,-1.0,0.03607214428857715
19,1.1414271467504167,-1.0,2.04327065903825,-1.0,0.038076152304609215
20,1.184966774747701,-1.0,2.0426924992833624,-1.0,0.04008016032064128
21,1.2280572410927584,-1.0,2.042114339528484,-1.0,0.04208416833667334
22,1.2704184486549746,-1.0,2.0415361797736016,-1.0,0.044088176352705406
23,1.3117703003037346,-1.0,2.040958020018714,-1.0,0.04609218436873747
24,1.3518326989084248,-1.0,2.0403798602638363,-1.0,0.04809619238476953
25,1.3903255473384308,-1.0,2.039801700508949,-1.0,0.0501002004008016
26,1.426968748463138,-1.0,2.039223540754066,-1.0,0.052104208416833664
27,1.4614822051519323,-1.0,2.0386453809991836,-1.0,0.05410821643286573
28,1.493585820274199,-1.0,2.038067221244301,-1.0,0.05611222444889779
29,1.5229994966993243,-1.0,2.0374890614894183,-1.0,0.058116232464929855
30,1.5494431372966933,-1.0,2.036910901734531,-1.0,0.06012024048096192
31,1.5726366449356914,-1.0,2.0363327419796478,-1.0,0.06212424849699398
32,1.5922999224857057,-1.0,2.035754582224765,-1.0,0.06412825651302605
33,1.6081528728161198,-1.0,2.0351764224698825,-1.0,0.06613226452905811
34,1.6199261720460858,-1.0,2.034598262715,-1.0,0.06813627254509018
35,1.6295177667969634,-1.0,2.0340201029601173,-1.0,0.07014028056112225
36,1.6384969315660853,-1.0,2.0334419432052298,2.0330032027823766,0.0721442885771543
37,1.646891678556832,-1.0,2.032864136168311,-1.0,0.07414829659318636
38,1.6547300199725856,-1.0,2.0322948545284634,-1.0,0.07615230460921843
39,1.6620399680167273,1.6825234819876578,2.031737193678654,-1.0,0.0781563126252505
40,1.6688495348926382,-1.0,2.0311907138143797,-1.0,0.08016032064128256
41,1.6751867328037005,-1.0,2.030654975131105,-1.0,0.08216432865731463
42,1.6810795739532947,-1.0,2.030129537824321,-1.0,0.08416833667334668
43,1.6865560705448026,-1.0,2.029613962089499,-1.0,0.08617234468937875
44,1.6916442347816065,-1.0,2.029107808122129,-1.0,0.08817635270541081
45,1.6963720788670866,-1.0,2.0286106361176874,-1.0,0.09018036072144288
46,1.7007676150046254,-1.0,2.0281220062716496,-1.0,0.09218436873747494
47,1.7048588553976036,-1.0,2.0276414787795063,-1.0,0.09418837675350701
48,1.7086738122494025,1.7125179146304719,2.0271686138367335,-1.0,0.09619238476953906
49,1.7122404977634043,-1.0,2.026702971638807,-1.0,0.09819639278557113
50,1.7155869241429897,-1.0,2.0262441123812125,-1.0,0.1002004008016032
51,1.7187415478230417,-1.0,2.0257915962594306,-1.0,0.10220440881763526
52,1.7217668292868828,-1.0,2.025344983468942,-1.0,0.10420841683366733
53,1.7246902780948705,-1.0,2.024903834205223,-1.0,0.1062124248496994
54,1.7275086074500514,-1.0,2.024467708663759,-1.0,0.10821643286573146
55,1.7302185305554718,-1.0,2.0240361670400304,-1.0,0.11022044088176351
56,1.7328167606141793,-1.0,2.0236087695295133,-1.0,0.11222444889779558
57,1.7353000108292205,-1.0,2.0231850763276937,-1.0,0.11422845691382764
58,1.737664994403642,-1.0,2.0227646476300474,-1.0,0.11623246492985971
59,1.739908424540491,-1.0,2.0223470436320596,-1.0,0.11823647294589178
60,1.7420270144428143,-1.0,2.021931824529206,-1.0,0.12024048096192384
61,1.7440174773136585,-1.0,2.021518550516969,-1.0,0.1222444889779559
62,1.7458765263560707,-1.0,2.0211067817908366,-1.0,0.12424849699398796
63,1.7476008747730971,-1.0,2.020696078546277,-1.0,0.12625250501002003
64,1.749187235767786,1.7490474608711828,2.020286000978775,-1.0,0.1282565130260521
65,1.7506323225431826,-1.0,2.0198761092838162,-1.0,0.13026052104208416
66,1.7519328483023349,-1.0,2.019465963656872,-1.0,0.13226452905811623
67,1.7530855262482896,-1.0,2.0190551242934323,-1.0,0.1342685370741483
68,1.7540887740711903,-1.0,2.0186431513889733,-1.0,0.13627254509018036
69,1.7550311831622918,-1.0,2.0182296051389805,-1.0,0.13827655310621242
70,1.755960055060271,-1.0,2.0178140457389255,-1.0,0.1402805611222445
71,1.7568696077593202,-1.0,2.0173960333842933,-1.0,0.14228456913827653
72,1.7577540592536316,-1.0,2.016975128270565,-1.0,0.1442885771543086
73,1.7586076275373979,-1.0,2.0165508905932206,-1.0,0.14629258517034066
74,1.7594245306048113,-1.0,2.016122880547742,-1.0,0.14829659318637273
75,1.7601989864500636,-1.0,2.0156906583296093,-1.0,0.1503006012024048
76,1.760925213067347,1.762832592283151,2.0152537841342983,-1.0,0.15230460921843686
77,1.7615974284508538,-1.0,2.014811818157295,-1.0,0.15430861723446893
78,1.762209850594776,-1.0,2.01436432059408,-1.0,0.156312625250501
79,1.7627566974933064,-1.0,2.0139108516401345,-1.0,0.15831663326653306
80,1.7632321871406362,-1.0,2.0134509714909337,-1.0,0.16032064128256512
81,1.7636305375309587,-1.0,2.012984240341963,-1.0,0.1623246492985972
82,1.7639459666584654,-1.0,2.0125102183886994,-1.0,0.16432865731462926
83,1.7641726925173487,-1.0,2.0120284658266274,-1.0,0.16633266533066132
84,1.7643049331018008,-1.0,2.0115385428512287,-1.0,0.16833667334669336
85,1.7643367248663608,-1.0,2.0110400096579735,-1.0,0.17034068136272543
86,1.7642587924368558,-1.0,2.010532426442353,-1.0,0.1723446893787575
87,1.7640736043174607,-1.0,2.0100153533998473,-1.0,0.17434869739478956
88,1.763788325350981,1.7645639270835975,2.009488350725933,-1.0,0.17635270541082163
89,1.763410120380221,-1.0,2.00895097861609,-1.0,0.1783567134268537
90,1.7629461542479854,-1.0,2.0084027972658,-1.0,0.18036072144288576
91,1.7624035917970788,-1.0,2.007843366870548,-1.0,0.18236472945891782
92,1.7617895978703066,-1.0,2.007272247625805,-1.0,0.1843687374749499
93,1.7611113373104732,-1.0,2.0066889997270616,-1.0,0.18637274549098196
94,1.7603759749603833,-1.0,2.0060931833697895,-1.0,0.18837675350701402
95,1.759590675662842,-1.0,2.005484358749478,-1.0,0.1903807615230461
96,1.758762604260654,-1.0,2.0048620860616087,-1.0,0.19238476953907813
97,1.757898925596624,-1.0,2.0042259255016477,-1.0,0.1943887775551102
98,1.7570068045135567,-1.0,2.00357543726509,-1.0,0.19639278557114226
99,1.756093405854257,-1.0,2.002910181547407,-1.0,0.19839679358717432
100,1.7551658944615298,-1.0,2.0022297185440885,-1.0,0.2004008016032064
101,1.75423143517818,-1.0,2.001533608450606,-1.0,0.20240480961923846
102,1.753293293982867,-1.0,2.0008214114624456,-1.0,0.20440881763527052
103,1.7522580157529024,-1.0,2.0000926877750875,-1.0,0.2064128256513026
104,1.751089713353701,-1.0,1.9993469975840077,-1.0,0.20841683366733466
105,1.7497971064945488,-1.0,1.9985839010846917,-1.0,0.21042084168336672
106,1.7483889148847318,-1.0,1.9978029584726205,-1.0,0.2124248496993988
107,1.7468738582335366,-1.0,1.9970037299432697,-1.0,0.21442885771543085
108,1.7452606562502484,-1.0,1.9961857756921253,-1.0,0.21643286573146292
109,1.7435580286441543,1.7420898967848188,1.995348655914663,-1.0,0.21843687374749496
110,1.7417746951245399,-1.0,1.9944919308063682,-1.0,0.22044088176352702
111,1.7399193754006912,-1.0,1.9936151605627122,-1.0,0.2224448897795591
112,1.738000789181895,-1.0,1.9927179053791904,-1.0,0.22444889779559116
113,1.7360276561774364,-1.0,1.9917997254512736,-1.0,0.22645290581162322
114,1.7340086960966026,-1.0,1.990860180974438,-1.0,0.2284569138276553
115,1.7319526286486788,-1.0,1.9898988321441737,-1.0,0.23046092184368736
116,1.7298681735429517,-1.0,1.9889152391559617,-1.0,0.23246492985971942
117,1.7277640504887073,-1.0,1.9879089622052732,-1.0,0.2344689378757515
118,1.7256489791952312,-1.0,1.9868795614875983,-1.0,0.23647294589178355
119,1.7235276158654578,-1.0,1.985826597198413,1.9850209697322567,0.23847695390781562
120,1.7213286640573982,-1.0,1.9847400999174047,-1.0,0.24048096192384769
121,1.719028479258229,-1.0,1.9834113898259336,-1.0,0.24248496993987975
122,1.7166340199636676,-1.0,1.9817598885428849,-1.0,0.2444889779559118
123,1.7141522446694306,-1.0,1.9797915310256768,-1.0,0.24649298597194386
124,1.711590111871234,-1.0,1.9775122522317183,-1.0,0.24849699398797592
125,1.708954580064795,1.7077136992122033,1.9749279871184227,-1.0,0.250501002004008
126,1.7062526077458302,-1.0,1.9720446706432033,-1.0,0.25250501002004005
127,1.7034911534100556,-1.0,1.968868237763474,-1.0,0.2545090180360721
128,1.7006771755531884,-1.0,1.9654046234366433,-1.0,0.2565130260521042
129,1.6978176326709447,-1.0,1.9616597626201246,-1.0,0.25851703406813625
130,1.6949194832590417,-1.0,1.9576395902713315,-1.0,0.2605210420841683
131,1.6919896858131958,-1.0,1.9533500413476776,-1.0,0.2625250501002004
132,1.6890351988291228,-1.0,1.9487970508065713,-1.0,0.26452905811623245
133,1.6860629808025407,-1.0,1.943986553605436,-1.0,0.2665330661322645
134,1.6830799902291653,-1.0,1.9389244847016707,-1.0,0.2685370741482966
135,1.6800931856047123,-1.0,1.9336167790526935,-1.0,0.27054108216432865
136,1.677105302504764,-1.0,1.928069371615918,-1.0,0.2725450901803607
137,1.6740588038026125,-1.0,1.9222881973487531,-1.0,0.2745490981963928
138,1.6709395601271413,-1.0,1.916279191208612,-1.0,0.27655310621242485
139,1.667755521639393,-1.0,1.9100482881529133,-1.0,0.2785571142284569
140,1.664514638500408,-1.0,1.9036014231390606,-1.0,0.280561122244489
141,1.6612248608712283,-1.0,1.8969445311244721,-1.0,0.282565130260521
142,1.657894138912896,-1.0,1.8900835470665618,-1.0,0.28456913827655306
143,1.6545304227864526,-1.0,1.8830244059227381,-1.0,0.2865731462925851
144,1.6511416626529383,-1.0,1.8757730426504144,-1.0,0.2885771543086172
145,1.6477358086733955,-1.0,1.8683353922069994,-1.0,0.29058116232464926
146,1.644320811008866,-1.0,1.8607173895499116,-1.0,0.2925851703406813
147,1.6409046198203912,-1.0,1.8529249696365595,-1.0,0.2945891783567134
148,1.637495185269012,-1.0,1.8449640674243566,-1.0,0.29659318637274545
149,1.6341004575157703,-1.0,1.8368406178707215,-1.0,0.2985971943887775
150,1.6307283867217073,1.6285836862727383,1.8285605559330576,-1.0,0.3006012024048096
151,1.6273869230478655,-1.0,1.8201298165687836,-1.0,0.30260521042084165
152,1.624084016655285,-1.0,1.8115543347353031,-1.0,0.3046092184368737
153,1.6208283751058763,-1.0,1.8028400453900395,-1.0,0.3066132264529058
154,1.6176317129525706,-1.0,1.7939928834903964,-1.0,0.30861723446893785
155,1.6144875069324098,-1.0,1.785018783993797,-1.0,0.3106212424849699
156,1.611385109231669,-1.0,1.7759236818576405,-1.0,0.312625250501002
157,1.6083138720366246,-1.0,1.76671351203935,-1.0,0.31462925851703405
158,1.6052631475335526,-1.0,1.757394209496334,-1.0,0.3166332665330661
159,1.6022222879087284,-1.0,1.747971709186006,-1.0,0.3186372745490982
160,1.599180645348429,-1.0,1.7384519460657748,-1.0,0.32064128256513025
161,1.596127572038929,-1.0,1.7288408550930539,-1.0,0.3226452905811623
162,1.5930524201665053,-1.0,1.7191443712252616,-1.0,0.3246492985971944
163,1.5899445419174334,-1.0,1.709368429419802,-1.0,0.32665330661322645
164,1.586793289477989,-1.0,1.6995189646340976,-1.0,0.3286573146292585
165,1.5835880150344488,-1.0,1.6896019118255527,-1.0,0.3306613226452906
166,1.5803180707730877,-1.0,1.679623205951576,-1.0,0.33266533066132264
167,1.5769728088801824,-1.0,1.6695887819695907,-1.0,0.33466933867735466
168,1.5735415815420084,-1.0,1.6595045748370052,-1.0,0.3366733466933867
169,1.570013740944842,-1.0,1.6493765195112282,-1.0,0.3386773547094188
170,1.5663817179098454,-1.0,1.6392105509496784,-1.0,0.34068136272545085
171,1.5626695616013015,-1.0,1.6290126041097641,-1.0,0.3426853707414829
172,1.5588849448556352,1.5566928748588824,1.618788613948894,-1.0,0.344689378757515
173,1.5550280963821936,-1.0,1.6085445154244913,-1.0,0.34669338677354705
174,1.5510992448903242,-1.0,1.59828624349396,-1.0,0.3486973947895791
175,1.5470986190893754,-1.0,1.5880197331147134,-1.0,0.3507014028056112
176,1.5430264476886941,-1.0,1.5777509192441699,-1.0,0.35270541082164325
177,1.5388829593976279,-1.0,1.5674857368397335,-1.0,0.3547094188376753
178,1.5346683829255248,-1.0,1.5572301208588222,-1.0,0.3567134268537074
179,1.5303829469817323,-1.0,1.5469900062588497,-1.0,0.35871743486973945
180,1.526026880275598,-1.0,1.53677132799722,-1.0,0.3607214428857715
181,1.5216004115164694,-1.0,1.5265800210313512,-1.0,0.3627254509018036
182,1.5171037694136944,-1.0,1.5164220203186614,-1.0,0.36472945891783565
183,1.5125371826766199,-1.0,1.5063032608165599,-1.0,0.3667334669338677
184,1.5079008800145939,-1.0,1.49622967748245,-1.0,0.3687374749498998
185,1.5031950901369648,-1.0,1.48620720527375,-1.0,0.37074148296593185
186,1.498420041753079,-1.0,1.4762417791478788,-1.0,0.3727454909819639
187,1.4935668850256327,-1.0,1.4663393340622397,-1.0,0.374749498997996
188,1.4885636721910904,-1.0,1.4565058049742514,-1.0,0.37675350701402804
189,1.4834065186740726,-1.0,1.446747126841327,-1.0,0.3787575150300601
190,1.4781098074785182,-1.0,1.437069234620866,-1.0,0.3807615230460922
191,1.4726879216083675,-1.0,1.4274780632703008,-1.0,0.38276553106212424
192,1.46715524406756,-1.0,1.4179795477470256,-1.0,0.38476953907815625
193,1.4615261578600351,1.461732964333598,1.4085796230084637,-1.0,0.3867735470941883
194,1.4558150459897328,-1.0,1.3992842240120287,-1.0,0.3887775551102204
195,1.4500362914605929,-1.0,1.3900992857151244,-1.0,0.39078156312625245
196,1.4442042772765544,-1.0,1.381030743075169,-1.0,0.3927855711422845
197,1.4383333864415575,-1.0,1.372084531049576,-1.0,0.3947895791583166
198,1.432438001959542,-1.0,1.3632665845957541,-1.0,0.39679358717434865
199,1.4265325068344468,-1.0,1.3545828386711167,-1.0,0.3987975951903807
200,1.4206312840702124,-1.0,1.3460392282330778,1.3448691725400328,0.4008016032064128
201,1.414748716670778,-1.0,1.3375449632656273,-1.0,0.40280561122244485
202,1.4088991876400832,-1.0,1.3289430295620497,-1.0,0.4048096192384769
203,1.403097079982068,-1.0,1.3202340288068326,-1.0,0.406813627254509
204,1.3973503502513052,-1.0,1.3114210443514371,-1.0,0.40881763527054105
205,1.3916208062280335,-1.0,1.302507159547329,-1.0,0.4108216432865731
206,1.3858962117073803,-1.0,1.2934954577459639,-1.0,0.4128256513026052
207,1.3801724981735375,1.3735142042342217,1.2843890222987975,-1.0,0.41482965931863724
208,1.3744455971106948,-1.0,1.2751909365573004,-1.0,0.4168336673346693
209,1.3687114400030431,-1.0,1.265904283872924,-1.0,0.4188376753507014
210,1.3629659583347735,-1.0,1.2565321475971285,-1.0,0.42084168336673344
211,1.3572050835900762,-1.0,1.2470776110813797,-1.0,0.4228456913827655
212,1.3514247472531424,-1.0,1.2375437576771333,-1.0,0.4248496993987976
213,1.3456208808081627,-1.0,1.2279336707358504,-1.0,0.42685370741482964
214,1.3397894157393273,-1.0,1.2182504336089868,-1.0,0.4288577154308617
215,1.3339262835308277,-1.0,1.2084971296480078,-1.0,0.4308617234468938
216,1.3280274156668541,-1.0,1.1986768422043792,-1.0,0.43286573146292584
217,1.3220887436315976,-1.0,1.188792654629547,-1.0,0.4348697394789579
218,1.3161061989092484,-1.0,1.178847650274977,-1.0,0.4368737474949899
219,1.3100757129839977,-1.0,1.1688449124921347,-1.0,0.438877755511022
220,1.3039932173400361,-1.0,1.158787524632476,-1.0,0.44088176352705405
221,1.2978545333545566,-1.0,1.148678570047452,-1.0,0.4428857715430861
222,1.2916578457540377,-1.0,1.1385211320885378,-1.0,0.4448897795591182
223,1.2854064949324582,-1.0,1.1283182941071892,-1.0,0.44689378757515025
224,1.279104269726757,-1.0,1.1180731394548578,-1.0,0.4488977955911823
225,1.272754958973874,1.2727220744195022,1.1077887514830134,-1.0,0.4509018036072144
226,1.2663623515107487,-1.0,1.0974682135431169,-1.0,0.45290581162324645
227,1.2599302361743205,-1.0,1.0871146089866146,-1.0,0.4549098196392785
228,1.2534624018015292,-1.0,1.0767310211649768,-1.0,0.4569138276553106
229,1.2469626372293146,-1.0,1.0663205334296693,-1.0,0.45891783567134264
230,1.2404347312946158,-1.0,1.055886229132138,-1.0,0.4609218436873747
231,1.2338824728343725,-1.0,1.0454311916238537,-1.0,0.4629258517034068
232,1.2273096506855243,-1.0,1.034958504256272,-1.0,0.46492985971943884
233,1.2207200536850107,-1.0,1.0244712503808535,-1.0,0.4669338677354709
234,1.2141174706697715,-1.0,1.0139725133490594,-1.0,0.468937875751503
235,1.207505690476746,-1.0,1.00346537651235,-1.0,0.47094188376753504
236,1.200888501942874,-1.0,0.9929529232221813,-1.0,0.4729458917835671
237,1.194269693905095,-1.0,0.982438236830019,-1.0,0.4749498997995992
238,1.1876402457097255,-1.0,0.971924400687314,-1.0,0.47695390781563124
239,1.1809397699113962,-1.0,0.9614144981455368,-1.0,0.4789579158316633
240,1.174170409867151,-1.0,0.9509116125561384,-1.0,0.48096192384769537
241,1.1673444398148307,-1.0,0.9404188272705893,-1.0,0.48296593186372744
242,1.1604741339922762,-1.0,0.9299392256403405,-1.0,0.4849699398797595
243,1.1535717666373275,1.1491963432293029,0.9194758910168574,-1.0,0.48697394789579157
244,1.1466496119878262,-1.0,0.9090319067515962,-1.0,0.4889779559118236
245,1.1397199442816124,-1.0,0.8986103561960223,-1.0,0.49098196392785565
246,1.1327950377565268,-1.0,0.8882143227015867,-1.0,0.4929859719438877
247,1.12588716665041,-1.0,0.8778468896197551,-1.0,0.4949899799599198
248,1.119008605201103,-1.0,0.8675111403019881,-1.0,0.49699398797595185
249,1.112171627646446,-1.0,0.8572101580997465,-1.0,0.4989979959919839
250,1.1053885082242798,-1.0,0.8469470263644814,-1.0,0.501002004008016
251,1.0986715211724454,-1.0,0.836724828447668,-1.0,0.503006012024048
252,1.0920329407287834,-1.0,0.8265466477007525,-1.0,0.5050100200400801
253,1.0854850411311339,-1.0,0.8164155674752053,-1.0,0.5070140280561122
254,1.0790400966173381,-1.0,0.8063346711224775,-1.0,0.5090180360721442
255,1.0726951335710246,-1.0,0.7963070419940347,-1.0,0.5110220440881763
256,1.0663889273097658,-1.0,0.7863357634413375,-1.0,0.5130260521042084
257,1.060116026742456,-1.0,0.7764239188158418,-1.0,0.5150300601202404
258,1.053879283606835,-1.0,0.7665745914690084,-1.0,0.5170340681362725
259,1.047681549640642,-1.0,0.7567908647522982,-1.0,0.5190380761523046
260,1.041525676581616,-1.0,0.7470758220171764,-1.0,0.5210420841683366
261,1.0354145161674975,1.030528903229285,0.7374325466150943,-1.0,0.5230460921843687
262,1.0293509201360245,-1.0,0.7278641218975126,-1.0,0.5250501002004008
263,1.0233377402249377,-1.0,0.7183736312159017,-1.0,0.5270541082164328
264,1.0173778281719756,-1.0,0.7089641579217125,-1.0,0.5290581162324649
265,1.0114740357148777,-1.0,0.6996387853664012,-1.0,0.531062124248497
266,1.0056292145913839,-1.0,0.6904005969014428,-1.0,0.533066132264529
267,0.9998462165392328,-1.0,0.6812526758782788,-1.0,0.5350701402805611
268,0.9941278932961647,-1.0,0.6721981056483843,-1.0,0.5370741482965932
269,0.9884770965999179,-1.0,0.6632399695632105,-1.0,0.5390781563126252
270,0.9828966781882329,-1.0,0.6543813509742229,-1.0,0.5410821643286573
271,0.9773894897988484,-1.0,0.6456253332328774,-1.0,0.5430861723446894
272,0.9719545225489984,-1.0,0.6369749996906348,-1.0,0.5450901803607214
273,0.9665775978063924,-1.0,0.6284334336989557,-1.0,0.5470941883767535
274,0.9612561862072451,-1.0,0.6200037186093009,-1.0,0.5490981963927856
275,0.955989246719779,-1.0,0.6116889377731312,-1.0,0.5511022044088176
276,0.9507757383122151,-1.0,0.6034921745419072,-1.0,0.5531062124248497
277,0.9456146199527758,-1.0,0.59541651226708,-1.0,0.5551102204408818
278,0.9405048506096825,-1.0,0.5874650343001201,-1.0,0.5571142284569138
